Distance (m),Elevation (m)
0,1515.949096679688
2.315113802463467,1516.764892578125
4.630227604926934,1517.583129882812
6.945341407390401,1518.40380859375
9.260455209853868,1519.22705078125
11.575569012317334,1519.9111328125
13.890682814780803,1520.2001953125
16.205796617244268,1520.486328125
18.520910419707736,1520.769775390625
20.836024222171204,1521.05029296875
23.15113802463467,1521.328002929688
25.466251827098137,1521.60302734375
27.781365629561606,1521.875122070312
30.09647943202507,1522.144409179688
32.411593234488535,1522.411010742188
34.72670703695201,1522.674682617188
37.04182083941547,1522.935546875
39.35693464187894,1523.193603515625
41.67204844434241,1523.448974609375
43.98716224680587,1523.701416015625
46.30227604926934,1523.951049804688
48.61738985173281,1524.197875976562
50.932503654196275,1524.490112304688
53.24761745665974,1524.883544921875
55.56273125912321,1525.268432617188
57.877845061586676,1525.644897460938
60.19295886405014,1526.012939453125
62.508072666513605,1526.37255859375
64.82318646897707,1526.723754882812
67.13830027144054,1527.066528320312
69.45341407390401,1527.40087890625
71.76852787636747,1527.726806640625
74.08364167883094,1528.044311523438
76.39875548129442,1528.353271484375
78.71386928375787,1528.653930664062
81.02898308622134,1528.946166992188
83.34409688868482,1529.229858398438
85.65921069114827,1529.505249023438
87.97432449361175,1529.772094726562
90.28943829607522,1530.030639648438
92.60455209853868,1530.280639648438
94.91966590100215,1529.765625
97.23477970346562,1528.974975585938
99.54989350592908,1528.192504882812
101.86500730839255,1527.418334960938
104.18012111085602,1526.65234375
106.49523491331948,1525.894653320312
108.81034871578295,1525.145263671875
111.12546251824642,1524.404052734375
113.44057632070988,1523.671020507812
115.75569012317335,1522.946411132812
118.07080392563681,1522.229858398438
120.38591772810028,1521.521728515625
122.70103153056375,1520.82177734375
125.01614533302721,1520.091674804688
127.33125913549068,1519.366821289062
129.64637293795414,1518.655639648438
131.96148674041763,1517.958374023438
134.27660054288108,1517.274658203125
136.59171434534454,1516.604858398438
138.90682814780803,1515.948608398438
141.22194195027149,1515.306274414062
143.53705575273494,1514.677612304688
145.85216955519843,1514.062744140625
148.1672833576619,1513.461547851562
150.48239716012534,1512.874145507812
152.79751096258883,1512.300537109375
155.1126247650523,1511.740600585938
157.42773856751575,1511.1943359375
159.74285236997923,1510.661987304688
162.0579661724427,1510.143310546875
164.37307997490615,1509.638305664062
166.68819377736963,1509.147216796875
169.0033075798331,1508.669677734375
171.31842138229655,1508.2060546875
173.63353518476004,1507.756103515625
175.9486489872235,1507.31982421875
178.26376278968695,1506.897338867188
180.57887659215044,1506.488647460938
182.8939903946139,1506.09375
185.20910419707735,1505.712524414062
187.52421799954084,1505.344970703125
189.8393318020043,1505.155029296875
192.15444560446775,1505.11767578125
194.46955940693124,1505.084350585938
196.7846732093947,1505.055297851562
199.09978701185815,1505.0302734375
201.41490081432164,1505.009399414062
203.7300146167851,1505.029296875
206.04512841924856,1505.093017578125
208.36024222171204,1505.158081054688
210.6753560241755,1505.224609375
212.99046982663896,1505.292358398438
215.30558362910244,1505.361572265625
217.6206974315659,1505.43212890625
219.93581123402936,1505.504150390625
222.25092503649284,1505.577392578125
224.5660388389563,1505.652099609375
226.88115264141976,1505.728271484375
229.19626644388322,1505.8056640625
231.5113802463467,1505.884521484375
233.82649404881016,1505.964721679688
236.14160785127362,1506.046264648438
238.4567216537371,1506.129272460938
240.77183545620056,1506.213500976562
243.08694925866402,1506.299194335938
245.4020630611275,1506.386352539062
247.71717686359096,1506.474731445312
250.03229066605442,1506.564575195312
252.3474044685179,1506.65576171875
254.66251827098137,1506.748413085938
256.97763207344485,1506.84228515625
259.2927458759083,1506.937622070312
261.60785967837177,1507.034301757812
263.92297348083525,1507.13232421875
266.2380872832987,1507.231811523438
268.55320108576217,1507.332641601562
270.86831488822565,1507.434814453125
273.1834286906891,1507.538452148438
275.49854249315257,1507.643310546875
277.81365629561606,1507.74951171875
280.1287700980795,1507.856567382812
282.44388390054297,1507.972778320312
284.75899770300646,1508.169189453125
287.0741115054699,1508.421142578125
289.3892253079334,1508.890380859375
291.70433911039686,1509.36669921875
294.0194529128603,1509.849731445312
296.3345667153238,1510.339599609375
298.64968051778726,1510.836303710938
300.9647943202507,1511.339965820312
303.2799081227142,1511.850341796875
305.59502192517766,1512.36767578125
307.9101357276411,1512.891845703125
310.2252495301046,1513.4228515625
312.54036333256806,1513.960693359375
314.8554771350315,1514.50537109375
317.170590937495,1515.056884765625
319.48570473995846,1515.615356445312
321.8008185424219,1516.180541992188
324.1159323448854,1516.752685546875
326.43104614734887,1517.331665039062
328.7461599498123,1517.91748046875
331.0612737522758,1518.510131835938
333.37638755473927,1519.109619140625
335.6915013572027,1519.715942382812
338.0066151596662,1520.285888671875
340.32172896212967,1520.7998046875
342.6368427645931,1521.3173828125
344.9519565670566,1521.838745117188
347.26707036952007,1522.363647460938
349.5821841719835,1522.892333984375
351.897297974447,1523.424682617188
354.21241177691047,1523.975952148438
356.5275255793739,1524.562622070312
358.8426393818374,1525.149291992188
361.1577531843009,1525.735961914062
363.4728669867643,1526.322631835938
365.7879807892278,1526.909301757812
368.1030945916913,1527.495971679688
370.4182083941547,1528.082641601562
372.7333221966182,1528.669311523438
375.0484359990817,1529.255981445312
377.3635498015451,1529.842651367188
379.6786636040086,1530.429443359375
381.9937774064721,1531.01611328125
384.3088912089355,1531.602783203125
386.624005011399,1532.189453125
388.9391188138625,1532.776123046875
391.2542326163259,1533.36279296875
393.5693464187894,1533.949462890625
395.8844602212529,1534.5361328125
398.1995740237163,1535.122802734375
400.5146878261798,1535.70947265625
402.8298016286433,1536.296142578125
405.1449154311067,1536.882934570312
407.4600292335702,1537.438842773438
409.7751430360337,1537.990478515625
412.0902568384971,1538.54150390625
414.4053706409606,1539.091674804688
416.7204844434241,1539.64111328125
419.0355982458875,1540.208740234375
421.350712048351,1540.8701171875
423.6658258508145,1541.530029296875
425.9809396532779,1542.1884765625
428.2960534557414,1542.845581054688
430.6111672582049,1543.501220703125
432.9262810606683,1544.155517578125
435.2413948631318,1544.808471679688
437.5565086655953,1545.4599609375
439.8716224680587,1546.177978515625
442.1867362705222,1546.95458984375
444.5018500729857,1547.741088867188
446.8169638754491,1548.537353515625
449.1320776779126,1549.343505859375
451.44719148037603,1550.159423828125
453.7623052828395,1550.985229492188
456.077419085303,1551.82080078125
458.39253288776644,1552.666137695312
460.7076466902299,1553.521362304688
463.0227604926934,1554.386352539062
465.33787429515684,1555.26123046875
467.6529880976203,1556.145874023438
469.9681019000838,1557.040283203125
472.28321570254724,1557.944580078125
474.5983295050107,1558.911376953125
476.9134433074742,1559.93408203125
479.22855710993764,1560.970581054688
481.5436709124011,1562.02099609375
483.8587847148646,1563.085083007812
486.17389851732804,1564.1630859375
488.4890123197915,1565.2548828125
490.804126122255,1566.360473632812
493.11923992471844,1567.479858398438
495.43435372718193,1568.613159179688
497.7494675296454,1569.760131835938
500.06458133210884,1570.921020507812
502.37969513457233,1572.095703125
504.6948089370358,1573.2841796875
507.00992273949925,1574.486572265625
509.32503654196273,1575.70263671875
511.6401503444262,1576.9326171875
513.9552641468897,1578.176391601562
516.2703779493531,1579.433959960938
518.5854917518166,1580.705322265625
520.9006055542801,1581.990600585938
523.2157193567435,1583.252319335938
525.530833159207,1584.472412109375
527.8459469616705,1585.7021484375
530.1610607641339,1586.941650390625
532.4761745665974,1588.190673828125
534.7912883690609,1589.449462890625
537.1064021715243,1590.747680664062
539.4215159739878,1592.116333007812
541.7366297764513,1593.489868164062
544.0517435789147,1594.8681640625
546.3668573813782,1596.251342773438
548.6819711838417,1597.639282226562
550.9970849863051,1599.032104492188
553.3121987887686,1600.429809570312
555.6273125912321,1601.832275390625
557.9424263936955,1603.239624023438
560.257540196159,1604.651733398438
562.5726539986225,1606.068725585938
564.8877678010859,1607.490600585938
567.2028816035494,1608.917236328125
569.5179954060129,1610.348754882812
571.8331092084763,1611.785034179688
574.1482230109398,1613.195434570312
576.4633368134033,1614.581298828125
578.7784506158667,1615.968994140625
581.0935644183302,1617.358642578125
583.4086782207937,1618.750244140625
585.7237920232571,1620.143798828125
588.0389058257206,1621.539306640625
590.3540196281841,1622.936645507812
592.6691334306475,1624.3359375
594.984247233111,1625.7373046875
597.2993610355745,1627.140502929688
599.614474838038,1628.545654296875
601.9295886405014,1629.95263671875
604.2447024429649,1631.361694335938
606.5598162454284,1632.772583007812
608.8749300478918,1634.185424804688
611.1900438503553,1635.600219726562
613.5051576528188,1637.016967773438
615.8202714552822,1638.435668945312
618.1353852577457,1639.856323242188
620.4504990602092,1641.597290039062
622.7656128626726,1643.401123046875
625.0807266651361,1645.203125
627.3958404675996,1647.003173828125
629.710954270063,1648.801391601562
632.0260680725265,1650.597534179688
634.34118187499,1652.315185546875
636.6562956774534,1654.0185546875
638.9714094799169,1655.719116210938
641.2865232823804,1657.4169921875
643.6016370848438,1659.112182617188
645.9167508873073,1660.804565429688
648.2318646897708,1662.494384765625
650.5469784922342,1664.181274414062
652.8620922946977,1665.865600585938
655.1772060971612,1667.547119140625
657.4923198996246,1669.225952148438
659.8074337020881,1670.902099609375
662.1225475045516,1672.575439453125
664.437661307015,1674.24609375
666.7527751094785,1675.913940429688
669.067888911942,1677.73095703125
671.3830027144054,1679.649536132812
673.6981165168689,1681.568115234375
676.0132303193324,1683.486694335938
678.3283441217958,1685.405151367188
680.6434579242593,1687.32373046875
682.9585717267228,1689.242309570312
685.2736855291862,1691.160766601562
687.5887993316497,1693.079345703125
689.9039131341132,1694.997924804688
692.2190269365766,1696.91650390625
694.5341407390401,1698.8349609375
696.8492545415036,1700.753540039062
699.164368343967,1702.672119140625
701.4794821464305,1704.590698242188
703.794595948894,1706.509155273438
706.1097097513574,1708.427734375
708.4248235538209,1710.346313476562
710.7399373562844,1712.264770507812
713.0550511587478,1714.183349609375
715.3701649612113,1716.101928710938
717.6852787636748,1718.0205078125
720.0003925661382,1719.93896484375
722.3155063686017,1721.857543945312
724.6306201710652,1723.776123046875
726.9457339735286,1725.694580078125
729.2608477759921,1727.613159179688
731.5759615784556,1729.486450195312
733.891075380919,1731.260009765625
736.2061891833825,1733.051147460938
738.521302985846,1735.101806640625
740.8364167883094,1737.130615234375
743.151530590773,1739.1376953125
745.4666443932364,1741.122924804688
747.7817581956998,1743.08642578125
750.0968719981634,1745.028198242188
752.4119858006268,1746.948120117188
754.7270996030902,1748.84619140625
757.0422134055538,1750.722534179688
759.3573272080172,1752.577026367188
761.6724410104806,1754.409790039062
763.9875548129442,1756.220825195312
766.3026686154076,1758.010009765625
768.617782417871,1759.77734375
770.9328962203346,1761.290283203125
773.248010022798,1762.194702148438
775.5631238252614,1763.097900390625
777.878237627725,1764
780.1933514301884,1764.90087890625
782.5084652326518,1765.80078125
784.8235790351154,1766.699584960938
787.1386928375788,1767.59716796875
789.4538066400422,1768.51318359375
791.7689204425058,1769.514404296875
794.0840342449692,1770.514526367188
796.3991480474326,1771.513671875
798.7142618498962,1772.51171875
801.0293756523596,1773.5087890625
803.344489454823,1774.504760742188
805.6596032572866,1775.499633789062
807.97471705975,1776.493530273438
810.2898308622134,1777.486450195312
812.604944664677,1778.478149414062
814.9200584671404,1779.468994140625
817.2351722696038,1780.458618164062
819.5502860720674,1781.447265625
821.8653998745308,1782.434936523438
824.1805136769942,1783.421508789062
826.4956274794578,1784.407104492188
828.8107412819212,1785.391479492188
831.1258550843846,1786.375
833.4409688868482,1787.357421875
835.7560826893116,1788.338745117188
838.071196491775,1789.318969726562
840.3863102942386,1790.573364257812
842.701424096702,1792.000732421875
845.0165378991654,1793.427734375
847.331651701629,1794.854248046875
849.6467655040924,1796.280395507812
851.9618793065558,1797.706176757812
854.2769931090194,1799.131469726562
856.5921069114828,1800.556396484375
858.9072207139462,1801.980834960938
861.2223345164098,1803.404907226562
863.5374483188732,1804.82861328125
865.8525621213366,1806.251831054688
868.1676759238002,1807.674682617188
870.4827897262636,1809.097045898438
872.797903528727,1810.51904296875
875.1130173311906,1811.940551757812
877.428131133654,1813.361694335938
879.7432449361174,1814.782470703125
882.058358738581,1816.202758789062
884.3734725410444,1817.622680664062
886.6885863435078,1819.042114257812
889.0037001459714,1820.465576171875
891.3188139484348,1821.98876953125
893.6339277508982,1823.511840820312
895.9490415533617,1825.034912109375
898.2641553558252,1826.557739257812
900.5792691582886,1828.080444335938
902.8943829607521,1829.602905273438
905.2094967632156,1831.137451171875
907.524610565679,1832.734130859375
909.8397243681425,1834.330200195312
912.154838170606,1835.925537109375
914.4699519730694,1837.520263671875
916.7850657755329,1839.1142578125
919.1001795779964,1840.707641601562
921.4152933804598,1842.30029296875
923.7304071829233,1843.892333984375
926.0455209853868,1845.483642578125
928.3606347878502,1847.074340820312
930.6757485903137,1848.664306640625
932.9908623927772,1850.253662109375
935.3059761952406,1851.84228515625
937.6210899977041,1853.430297851562
939.9362038001676,1855.047241210938
942.251317602631,1856.71337890625
944.5664314050945,1858.376708984375
946.881545207558,1860.037475585938
949.1966590100214,1861.695434570312
951.5117728124849,1863.350708007812
953.8268866149484,1865.00341796875
956.1420004174119,1866.6533203125
958.4571142198753,1868.300537109375
960.7722280223388,1869.945068359375
963.0873418248023,1871.5869140625
965.4024556272657,1873.22607421875
967.7175694297292,1874.862426757812
970.0326832321927,1876.496215820312
972.3477970346561,1878.127319335938
974.6629108371196,1879.755737304688
976.978024639583,1881.38134765625
979.2931384420465,1883.00439453125
981.60825224451,1884.624633789062
983.9233660469735,1886.242309570312
986.2384798494369,1887.857177734375
988.5535936519004,1889.469360351562
990.8687074543639,1891.01416015625
993.1838212568273,1892.521606445312
995.4989350592908,1894.027709960938
997.8140488617543,1895.532592773438
1000.1291626642177,1897.036010742188
1002.4442764666812,1898.5380859375
1004.7593902691447,1900.038818359375
1007.0745040716081,1901.538208007812
1009.3896178740716,1903.036254882812
1011.7047316765351,1904.532958984375
1014.0198454789985,1906.0283203125
1016.334959281462,1907.522338867188
1018.6500730839255,1909.015014648438
1020.9651868863889,1910.50634765625
1023.2803006888524,1911.996337890625
1025.595414491316,1913.484985351562
1027.9105282937794,1914.97216796875
1030.2256420962428,1916.458129882812
1032.5407558987063,1917.942749023438
1034.8558697011697,1919.426025390625
1037.1709835036331,1920.907836914062
1039.4860973060968,1922.388427734375
1041.8012111085602,1923.844848632812
1044.1163249110236,1925.2978515625
1046.431438713487,1926.7490234375
1048.7465525159505,1928.198608398438
1051.061666318414,1929.646362304688
1053.3767801208776,1931.092529296875
1055.691893923341,1932.537109375
1058.0070077258044,1933.979858398438
1060.3221215282679,1935.421020507812
1062.6372353307313,1936.794311523438
1064.9523491331947,1938.084228515625
1067.2674629356584,1939.3671875
1069.5825767381218,1940.64306640625
1071.8976905405852,1941.911987304688
1074.2128043430487,1943.173828125
1076.527918145512,1944.428588867188
1078.8430319479755,1945.676391601562
1081.1581457504392,1946.917114257812
1083.4732595529026,1948.15087890625
1085.788373355366,1949.377563476562
1088.1034871578295,1950.59716796875
1090.418600960293,1951.809814453125
1092.7337147627563,1953.015502929688
1095.04882856522,1954.213989257812
1097.3639423676834,1955.405517578125
1099.6790561701469,1956.590087890625
1101.9941699726103,1957.7353515625
1104.3092837750737,1958.841430664062
1106.6243975775371,1959.937622070312
1108.9395113800008,1961.024047851562
1111.2546251824642,1961.99072265625
1113.5697389849277,1962.9189453125
1115.884852787391,1963.820434570312
1118.1999665898545,1964.6953125
1120.515080392318,1965.543334960938
1122.8301941947816,1966.36474609375
1125.145307997245,1967.159423828125
1127.4604217997085,1967.927368164062
1129.7755356021719,1968.668579101562
1132.0906494046353,1969.383056640625
1134.4057632070987,1970.070922851562
1136.7208770095624,1970.732055664062
1139.0359908120258,1971.366455078125
1141.3511046144893,1971.97412109375
1143.6662184169527,1972.555053710938
1145.9813322194161,1973.109375
1148.2964460218795,1973.636840820312
1150.6115598243432,1974.1376953125
1152.9266736268066,1974.61181640625
1155.24178742927,1975.059326171875
1157.5569012317335,1975.47998046875
1159.872015034197,1975.8740234375
1162.1871288366603,1976.241333007812
1164.502242639124,1976.581909179688
1166.8173564415874,1976.895751953125
1169.1324702440509,1977.182983398438
1171.4475840465143,1977.455078125
1173.7626978489777,1977.715454101562
1176.0778116514412,1977.953247070312
1178.3929254539048,1978.168579101562
1180.7080392563682,1978.361450195312
1183.0231530588317,1978.53173828125